frequency,db
20,78
25,79.2
31.5,80.1
40,81.5
50,82.8
63,84
80,85.2
100,86
125,86.8
160,87.5
200,88.2
250,88.9
315,89.5
400,90
500,90.6
630,91
800,91.4
1000,91.7
1250,92
1600,92.2
2000,92.5
2500,92.8
3150,93
4000,93.1
5000,93
6300,92.7
8000,92.2
10000,91.5
12500,90.3
16000,88.5
20000,86
